Waktu (s);Vo (V);I (A)
0.0000;0.0000;1.0000 
0.0100;0.0100;0.9900 
0.0200;0.0198;0.9802 
0.0300;0.0296;0.9704 
0.0400;0.0392;0.9608 
0.0500;0.0488;0.9512 
0.0600;0.0582;0.9418 
0.0700;0.0676;0.9324 
0.0800;0.0769;0.9231 
0.0900;0.0861;0.9139 
0.1000;0.0952;0.9048 
0.1100;0.1042;0.8958 
0.1200;0.1131;0.8869 
0.1300;0.1219;0.8781 
0.1400;0.1307;0.8693 
0.1500;0.1393;0.8607 
0.1600;0.1479;0.8521 
0.1700;0.1563;0.8437 
0.1800;0.1647;0.8353 
0.1900;0.1730;0.8270 
0.2000;0.1813;0.8187 
0.2100;0.1894;0.8106 
0.2200;0.1975;0.8025 
0.2300;0.2055;0.7945 
0.2400;0.2134;0.7866 
0.2500;0.2212;0.7788 
0.2600;0.2290;0.7711 
0.2700;0.2366;0.7634 
0.2800;0.2442;0.7558 
0.2900;0.2517;0.7483 
0.3000;0.2592;0.7408 
0.3100;0.2666;0.7334 
0.3200;0.2739;0.7261 
0.3300;0.2811;0.7189 
0.3400;0.2882;0.7118 
0.3500;0.2953;0.7047 
0.3600;0.3023;0.6977 
0.3700;0.3093;0.6907 
0.3800;0.3161;0.6839 
0.3900;0.3230;0.6771 
0.4000;0.3297;0.6703 
0.4100;0.3364;0.6636 
0.4200;0.3430;0.6570 
0.4300;0.3495;0.6505 
0.4400;0.3560;0.6440 
0.4500;0.3624;0.6376 
0.4600;0.3687;0.6313 
0.4700;0.3750;0.6250 
0.4800;0.3812;0.6188 
0.4900;0.3874;0.6126 
0.5000;0.3935;0.6065 
0.5100;0.3995;0.6005 
0.5200;0.4055;0.5945 
0.5300;0.4114;0.5886 
0.5400;0.4173;0.5827 
0.5500;0.4231;0.5769 
0.5600;0.4288;0.5712 
0.5700;0.4345;0.5655 
0.5800;0.4401;0.5599 
0.5900;0.4457;0.5543 
0.6000;0.4512;0.5488 
0.6100;0.4567;0.5433 
0.6200;0.4621;0.5379 
0.6300;0.4674;0.5326 
0.6400;0.4727;0.5273 
0.6500;0.4780;0.5220 
0.6600;0.4832;0.5168 
0.6700;0.4883;0.5117 
0.6800;0.4934;0.5066 
0.6900;0.4984;0.5016 
0.7000;0.5034;0.4966 
0.7100;0.5084;0.4916 
0.7200;0.5133;0.4867 
0.7300;0.5181;0.4819 
0.7400;0.5229;0.4771 
0.7500;0.5276;0.4724 
0.7600;0.5323;0.4677 
0.7700;0.5370;0.4630 
0.7800;0.5416;0.4584 
0.7900;0.5462;0.4538 
0.8000;0.5507;0.4493 
0.8100;0.5552;0.4449 
0.8200;0.5596;0.4404 
0.8300;0.5640;0.4360 
0.8400;0.5683;0.4317 
0.8500;0.5726;0.4274 
0.8600;0.5768;0.4232 
0.8700;0.5811;0.4189 
0.8800;0.5852;0.4148 
0.8900;0.5894;0.4106 
0.9000;0.5934;0.4066 
0.9100;0.5975;0.4025 
0.9200;0.6015;0.3985 
0.9300;0.6055;0.3945 
0.9400;0.6094;0.3906 
0.9500;0.6133;0.3867 
0.9600;0.6171;0.3829 
0.9700;0.6209;0.3791 
0.9800;0.6247;0.3753 
0.9900;0.6284;0.3716 
1.0000;0.6321;0.3679 
1.0100;0.6358;0.3642 
1.0200;0.6394;0.3606 
1.0300;0.6430;0.3570 
1.0400;0.6466;0.3534 
1.0500;0.6501;0.3499 
1.0600;0.6536;0.3465 
1.0700;0.6570;0.3430 
1.0800;0.6604;0.3396 
1.0900;0.6638;0.3362 
1.1000;0.6671;0.3329 
1.1100;0.6704;0.3296 
1.1200;0.6737;0.3263 
1.1300;0.6770;0.3230 
1.1400;0.6802;0.3198 
1.1500;0.6834;0.3166 
1.1600;0.6865;0.3135 
1.1700;0.6896;0.3104 
1.1800;0.6927;0.3073 
1.1900;0.6958;0.3042 
1.2000;0.6988;0.3012 
1.2100;0.7018;0.2982 
1.2200;0.7048;0.2952 
1.2300;0.7077;0.2923 
1.2400;0.7106;0.2894 
1.2500;0.7135;0.2865 
1.2600;0.7164;0.2836 
1.2700;0.7192;0.2808 
1.2800;0.7220;0.2780 
1.2900;0.7247;0.2753 
1.3000;0.7275;0.2725 
1.3100;0.7302;0.2698 
1.3200;0.7329;0.2671 
1.3300;0.7355;0.2645 
1.3400;0.7382;0.2618 
1.3500;0.7408;0.2592 
1.3600;0.7433;0.2567 
1.3700;0.7459;0.2541 
1.3800;0.7484;0.2516 
1.3900;0.7509;0.2491 
1.4000;0.7534;0.2466 
1.4100;0.7559;0.2441 
1.4200;0.7583;0.2417 
1.4300;0.7607;0.2393 
1.4400;0.7631;0.2369 
1.4500;0.7654;0.2346 
1.4600;0.7678;0.2322 
1.4700;0.7701;0.2299 
1.4800;0.7724;0.2276 
1.4900;0.7746;0.2254 
1.5000;0.7769;0.2231 
1.5100;0.7791;0.2209 
1.5200;0.7813;0.2187 
1.5300;0.7835;0.2165 
1.5400;0.7856;0.2144 
1.5500;0.7878;0.2122 
1.5600;0.7899;0.2101 
1.5700;0.7920;0.2080 
1.5800;0.7940;0.2060 
1.5900;0.7961;0.2039 
1.6000;0.7981;0.2019 
1.6100;0.8001;0.1999 
1.6200;0.8021;0.1979 
1.6300;0.8041;0.1959 
1.6400;0.8060;0.1940 
1.6500;0.8080;0.1920 
1.6600;0.8099;0.1901 
1.6700;0.8118;0.1882 
1.6800;0.8136;0.1864 
1.6900;0.8155;0.1845 
1.7000;0.8173;0.1827 
1.7100;0.8191;0.1809 
1.7200;0.8209;0.1791 
1.7300;0.8227;0.1773 
1.7400;0.8245;0.1755 
1.7500;0.8262;0.1738 
1.7600;0.8280;0.1720 
1.7700;0.8297;0.1703 
1.7800;0.8314;0.1686 
1.7900;0.8330;0.1670 
1.8000;0.8347;0.1653 
1.8100;0.8363;0.1637 
1.8200;0.8380;0.1620 
1.8300;0.8396;0.1604 
1.8400;0.8412;0.1588 
1.8500;0.8428;0.1572 
1.8600;0.8443;0.1557 
1.8700;0.8459;0.1541 
1.8800;0.8474;0.1526 
1.8900;0.8489;0.1511 
1.9000;0.8504;0.1496 
1.9100;0.8519;0.1481 
1.9200;0.8534;0.1466 
1.9300;0.8549;0.1451 
1.9400;0.8563;0.1437 
1.9500;0.8577;0.1423 
1.9600;0.8591;0.1409 
1.9700;0.8605;0.1395 
1.9800;0.8619;0.1381 
1.9900;0.8633;0.1367 
2.0000;0.8647;0.1353 
2.0100;0.8660;0.1340 
2.0200;0.8673;0.1327 
2.0300;0.8687;0.1313 
2.0400;0.8700;0.1300 
2.0500;0.8713;0.1287 
2.0600;0.8725;0.1275 
2.0700;0.8738;0.1262 
2.0800;0.8751;0.1249 
2.0900;0.8763;0.1237 
2.1000;0.8775;0.1225 
2.1100;0.8788;0.1212 
2.1200;0.8800;0.1200 
2.1300;0.8812;0.1188 
2.1400;0.8823;0.1177 
2.1500;0.8835;0.1165 
2.1600;0.8847;0.1153 
2.1700;0.8858;0.1142 
2.1800;0.8870;0.1130 
2.1900;0.8881;0.1119 
2.2000;0.8892;0.1108 
2.2100;0.8903;0.1097 
2.2200;0.8914;0.1086 
2.2300;0.8925;0.1075 
2.2400;0.8935;0.1065 
2.2500;0.8946;0.1054 
2.2600;0.8957;0.1043 
2.2700;0.8967;0.1033 
2.2800;0.8977;0.1023 
2.2900;0.8987;0.1013 
2.3000;0.8997;0.1003 
2.3100;0.9007;0.0993 
2.3200;0.9017;0.0983 
2.3300;0.9027;0.0973 
2.3400;0.9037;0.0963 
2.3500;0.9046;0.0954 
2.3600;0.9056;0.0944 
2.3700;0.9065;0.0935 
2.3800;0.9075;0.0925 
2.3900;0.9084;0.0916 
2.4000;0.9093;0.0907 
2.4100;0.9102;0.0898 
2.4200;0.9111;0.0889 
2.4300;0.9120;0.0880 
2.4400;0.9128;0.0872 
2.4500;0.9137;0.0863 
2.4600;0.9146;0.0854 
2.4700;0.9154;0.0846 
2.4800;0.9163;0.0837 
2.4900;0.9171;0.0829 
2.5000;0.9179;0.0821 
2.5100;0.9187;0.0813 
2.5200;0.9195;0.0805 
2.5300;0.9203;0.0797 
2.5400;0.9211;0.0789 
2.5500;0.9219;0.0781 
2.5600;0.9227;0.0773 
2.5700;0.9235;0.0765 
2.5800;0.9242;0.0758 
2.5900;0.9250;0.0750 
2.6000;0.9257;0.0743 
2.6100;0.9265;0.0735 
2.6200;0.9272;0.0728 
2.6300;0.9279;0.0721 
2.6400;0.9286;0.0714 
2.6500;0.9294;0.0707 
2.6600;0.9301;0.0699 
2.6700;0.9307;0.0693 
2.6800;0.9314;0.0686 
2.6900;0.9321;0.0679 
2.7000;0.9328;0.0672 
2.7100;0.9335;0.0665 
2.7200;0.9341;0.0659 
2.7300;0.9348;0.0652 
2.7400;0.9354;0.0646 
2.7500;0.9361;0.0639 
2.7600;0.9367;0.0633 
2.7700;0.9373;0.0627 
2.7800;0.9380;0.0620 
2.7900;0.9386;0.0614 
2.8000;0.9392;0.0608 
2.8100;0.9398;0.0602 
2.8200;0.9404;0.0596 
2.8300;0.9410;0.0590 
2.8400;0.9416;0.0584 
2.8500;0.9422;0.0578 
2.8600;0.9427;0.0573 
2.8700;0.9433;0.0567 
2.8800;0.9439;0.0561 
2.8900;0.9444;0.0556 
2.9000;0.9450;0.0550 
2.9100;0.9455;0.0545 
2.9200;0.9461;0.0539 
2.9300;0.9466;0.0534 
2.9400;0.9471;0.0529 
2.9500;0.9477;0.0523 
2.9600;0.9482;0.0518 
2.9700;0.9487;0.0513 
2.9800;0.9492;0.0508 
2.9900;0.9497;0.0503 
3.0000;0.9502;0.0498 
3.0100;0.9507;0.0493 
3.0200;0.9512;0.0488 
3.0300;0.9517;0.0483 
3.0400;0.9522;0.0478 
3.0500;0.9526;0.0474 
3.0600;0.9531;0.0469 
3.0700;0.9536;0.0464 
3.0800;0.9540;0.0460 
3.0900;0.9545;0.0455 
3.1000;0.9550;0.0450 
3.1100;0.9554;0.0446 
3.1200;0.9558;0.0442 
3.1300;0.9563;0.0437 
3.1400;0.9567;0.0433 
3.1500;0.9571;0.0429 
3.1600;0.9576;0.0424 
3.1700;0.9580;0.0420 
3.1800;0.9584;0.0416 
3.1900;0.9588;0.0412 
3.2000;0.9592;0.0408 
3.2100;0.9596;0.0404 
3.2200;0.9600;0.0400 
3.2300;0.9604;0.0396 
3.2400;0.9608;0.0392 
3.2500;0.9612;0.0388 
3.2600;0.9616;0.0384 
3.2700;0.9620;0.0380 
3.2800;0.9624;0.0376 
3.2900;0.9627;0.0373 
3.3000;0.9631;0.0369 
3.3100;0.9635;0.0365 
3.3200;0.9638;0.0362 
3.3300;0.9642;0.0358 
3.3400;0.9646;0.0354 
3.3500;0.9649;0.0351 
3.3600;0.9653;0.0347 
3.3700;0.9656;0.0344 
3.3800;0.9660;0.0340 
3.3900;0.9663;0.0337 
3.4000;0.9666;0.0334 
3.4100;0.9670;0.0330 
3.4200;0.9673;0.0327 
3.4300;0.9676;0.0324 
3.4400;0.9679;0.0321 
3.4500;0.9683;0.0317 
3.4600;0.9686;0.0314 
3.4700;0.9689;0.0311 
3.4800;0.9692;0.0308 
3.4900;0.9695;0.0305 
3.5000;0.9698;0.0302 
3.5100;0.9701;0.0299 
3.5200;0.9704;0.0296 
3.5300;0.9707;0.0293 
3.5400;0.9710;0.0290 
3.5500;0.9713;0.0287 
3.5600;0.9716;0.0284 
3.5700;0.9718;0.0282 
3.5800;0.9721;0.0279 
3.5900;0.9724;0.0276 
3.6000;0.9727;0.0273 
3.6100;0.9729;0.0271 
3.6200;0.9732;0.0268 
3.6300;0.9735;0.0265 
3.6400;0.9737;0.0263 
3.6500;0.9740;0.0260 
3.6600;0.9743;0.0257 
3.6700;0.9745;0.0255 
3.6800;0.9748;0.0252 
3.6900;0.9750;0.0250 
3.7000;0.9753;0.0247 
3.7100;0.9755;0.0245 
3.7200;0.9758;0.0242 
3.7300;0.9760;0.0240 
3.7400;0.9762;0.0238 
3.7500;0.9765;0.0235 
3.7600;0.9767;0.0233 
3.7700;0.9769;0.0231 
3.7800;0.9772;0.0228 
3.7900;0.9774;0.0226 
3.8000;0.9776;0.0224 
3.8100;0.9779;0.0221 
3.8200;0.9781;0.0219 
3.8300;0.9783;0.0217 
3.8400;0.9785;0.0215 
3.8500;0.9787;0.0213 
3.8600;0.9789;0.0211 
3.8700;0.9791;0.0209 
3.8800;0.9793;0.0207 
3.8900;0.9796;0.0204 
3.9000;0.9798;0.0202 
3.9100;0.9800;0.0200 
3.9200;0.9802;0.0198 
3.9300;0.9804;0.0196 
3.9400;0.9806;0.0194 
3.9500;0.9807;0.0193 
3.9600;0.9809;0.0191 
3.9700;0.9811;0.0189 
3.9800;0.9813;0.0187 
3.9900;0.9815;0.0185 
4.0000;0.9817;0.0183 
4.0100;0.9819;0.0181 
4.0200;0.9820;0.0180 
4.0300;0.9822;0.0178 
4.0400;0.9824;0.0176 
4.0500;0.9826;0.0174 
4.0600;0.9828;0.0172 
4.0700;0.9829;0.0171 
4.0800;0.9831;0.0169 
4.0900;0.9833;0.0167 
4.1000;0.9834;0.0166 
4.1100;0.9836;0.0164 
4.1200;0.9838;0.0162 
4.1300;0.9839;0.0161 
4.1400;0.9841;0.0159 
4.1500;0.9842;0.0158 
4.1600;0.9844;0.0156 
4.1700;0.9845;0.0155 
4.1800;0.9847;0.0153 
4.1900;0.9849;0.0151 
4.2000;0.9850;0.0150 
4.2100;0.9852;0.0148 
4.2200;0.9853;0.0147 
4.2300;0.9854;0.0146 
4.2400;0.9856;0.0144 
4.2500;0.9857;0.0143 
4.2600;0.9859;0.0141 
4.2700;0.9860;0.0140 
4.2800;0.9862;0.0138 
4.2900;0.9863;0.0137 
4.3000;0.9864;0.0136 
4.3100;0.9866;0.0134 
4.3200;0.9867;0.0133 
4.3300;0.9868;0.0132 
4.3400;0.9870;0.0130 
4.3500;0.9871;0.0129 
4.3600;0.9872;0.0128 
4.3700;0.9873;0.0127 
4.3800;0.9875;0.0125 
4.3900;0.9876;0.0124 
4.4000;0.9877;0.0123 
4.4100;0.9878;0.0122 
4.4200;0.9880;0.0120 
4.4300;0.9881;0.0119 
4.4400;0.9882;0.0118 
4.4500;0.9883;0.0117 
4.4600;0.9884;0.0116 
4.4700;0.9886;0.0114 
4.4800;0.9887;0.0113 
4.4900;0.9888;0.0112 
4.5000;0.9889;0.0111 
4.5100;0.9890;0.0110 
4.5200;0.9891;0.0109 
4.5300;0.9892;0.0108 
4.5400;0.9893;0.0107 
4.5500;0.9894;0.0106 
4.5600;0.9895;0.0105 
4.5700;0.9896;0.0104 
4.5800;0.9897;0.0103 
4.5900;0.9898;0.0102 
4.6000;0.9899;0.0101 
4.6100;0.9900;0.0100 
4.6200;0.9901;0.0099 
4.6300;0.9902;0.0098 
4.6400;0.9903;0.0097 
4.6500;0.9904;0.0096 
4.6600;0.9905;0.0095 
4.6700;0.9906;0.0094 
4.6800;0.9907;0.0093 
4.6900;0.9908;0.0092 
4.7000;0.9909;0.0091 
4.7100;0.9910;0.0090 
4.7200;0.9911;0.0089 
4.7300;0.9912;0.0088 
4.7400;0.9913;0.0087 
4.7500;0.9913;0.0087 
4.7600;0.9914;0.0086 
4.7700;0.9915;0.0085 
4.7800;0.9916;0.0084 
4.7900;0.9917;0.0083 
4.8000;0.9918;0.0082 
4.8100;0.9919;0.0081 
4.8200;0.9919;0.0081 
4.8300;0.9920;0.0080 
4.8400;0.9921;0.0079 
4.8500;0.9922;0.0078 
4.8600;0.9922;0.0078 
4.8700;0.9923;0.0077 
4.8800;0.9924;0.0076 
4.8900;0.9925;0.0075 
4.9000;0.9926;0.0074 
4.9100;0.9926;0.0074 
4.9200;0.9927;0.0073 
4.9300;0.9928;0.0072 
4.9400;0.9928;0.0072 
4.9500;0.9929;0.0071 
4.9600;0.9930;0.0070 
4.9700;0.9931;0.0069 
4.9800;0.9931;0.0069 
4.9900;0.9932;0.0068 
5.0000;0.9933;0.0067 
5.0100;0.9933;0.0067 
5.0200;0.9934;0.0066 
5.0300;0.9935;0.0065 
5.0400;0.9935;0.0065 
5.0500;0.9936;0.0064 
5.0600;0.9937;0.0063 
5.0700;0.9937;0.0063 
5.0800;0.9938;0.0062 
5.0900;0.9938;0.0062 
5.1000;0.9939;0.0061 
5.1100;0.9940;0.0060 
5.1200;0.9940;0.0060 
5.1300;0.9941;0.0059 
5.1400;0.9941;0.0059 
5.1500;0.9942;0.0058 
5.1600;0.9943;0.0057 
5.1700;0.9943;0.0057 
5.1800;0.9944;0.0056 
5.1900;0.9944;0.0056 
5.2000;0.9945;0.0055 
5.2100;0.9945;0.0055 
5.2200;0.9946;0.0054 
5.2300;0.9946;0.0054 
5.2400;0.9947;0.0053 
5.2500;0.9948;0.0052 
5.2600;0.9948;0.0052 
5.2700;0.9949;0.0051 
5.2800;0.9949;0.0051 
5.2900;0.9950;0.0050 
5.3000;0.9950;0.0050 
5.3100;0.9951;0.0049 
5.3200;0.9951;0.0049 
5.3300;0.9952;0.0048 
5.3400;0.9952;0.0048 
5.3500;0.9953;0.0047 
5.3600;0.9953;0.0047 
5.3700;0.9953;0.0047 
5.3800;0.9954;0.0046 
5.3900;0.9954;0.0046 
5.4000;0.9955;0.0045 
5.4100;0.9955;0.0045 
5.4200;0.9956;0.0044 
5.4300;0.9956;0.0044 
5.4400;0.9957;0.0043 
5.4500;0.9957;0.0043 
5.4600;0.9957;0.0043 
5.4700;0.9958;0.0042 
5.4800;0.9958;0.0042 
5.4900;0.9959;0.0041 
5.5000;0.9959;0.0041 
5.5100;0.9960;0.0040 
5.5200;0.9960;0.0040 
5.5300;0.9960;0.0040 
5.5400;0.9961;0.0039 
5.5500;0.9961;0.0039 
5.5600;0.9962;0.0038 
5.5700;0.9962;0.0038 
5.5800;0.9962;0.0038 
5.5900;0.9963;0.0037 
5.6000;0.9963;0.0037 
5.6100;0.9963;0.0037 
5.6200;0.9964;0.0036 
5.6300;0.9964;0.0036 
5.6400;0.9964;0.0036 
5.6500;0.9965;0.0035 
5.6600;0.9965;0.0035 
5.6700;0.9966;0.0034 
5.6800;0.9966;0.0034 
5.6900;0.9966;0.0034 
5.7000;0.9967;0.0033 
5.7100;0.9967;0.0033 
5.7200;0.9967;0.0033 
5.7300;0.9968;0.0032 
5.7400;0.9968;0.0032 
5.7500;0.9968;0.0032 
5.7600;0.9968;0.0032 
5.7700;0.9969;0.0031 
5.7800;0.9969;0.0031 
5.7900;0.9969;0.0031 
5.8000;0.9970;0.0030 
5.8100;0.9970;0.0030 
5.8200;0.9970;0.0030 
5.8300;0.9971;0.0029 
5.8400;0.9971;0.0029 
5.8500;0.9971;0.0029 
5.8600;0.9971;0.0029 
5.8700;0.9972;0.0028 
5.8800;0.9972;0.0028 
5.8900;0.9972;0.0028 
5.9000;0.9973;0.0027 
5.9100;0.9973;0.0027 
5.9200;0.9973;0.0027 
5.9300;0.9973;0.0027 
5.9400;0.9974;0.0026 
5.9500;0.9974;0.0026 
5.9600;0.9974;0.0026 
5.9700;0.9974;0.0026 
5.9800;0.9975;0.0025 
5.9900;0.9975;0.0025 
6.0000;0.9975;0.0025 
6.0100;0.9975;0.0025 
6.0200;0.9976;0.0024 
6.0300;0.9976;0.0024 
6.0400;0.9976;0.0024 
6.0500;0.9976;0.0024 
6.0600;0.9977;0.0023 
6.0700;0.9977;0.0023 
6.0800;0.9977;0.0023 
6.0900;0.9977;0.0023 
6.1000;0.9978;0.0022 
6.1100;0.9978;0.0022 
6.1200;0.9978;0.0022 
6.1300;0.9978;0.0022 
6.1400;0.9978;0.0022 
6.1500;0.9979;0.0021 
6.1600;0.9979;0.0021 
6.1700;0.9979;0.0021 
6.1800;0.9979;0.0021 
6.1900;0.9980;0.0020 
6.2000;0.9980;0.0020 
6.2100;0.9980;0.0020 
6.2200;0.9980;0.0020 
6.2300;0.9980;0.0020 
6.2400;0.9981;0.0019 
6.2500;0.9981;0.0019 
6.2600;0.9981;0.0019 
6.2700;0.9981;0.0019 
6.2800;0.9981;0.0019 
6.2900;0.9981;0.0019 
6.3000;0.9982;0.0018 
6.3100;0.9982;0.0018 
6.3200;0.9982;0.0018 
6.3300;0.9982;0.0018 
6.3400;0.9982;0.0018 
6.3500;0.9983;0.0017 
6.3600;0.9983;0.0017 
6.3700;0.9983;0.0017 
6.3800;0.9983;0.0017 
6.3900;0.9983;0.0017 
6.4000;0.9983;0.0017 
6.4100;0.9984;0.0016 
6.4200;0.9984;0.0016 
6.4300;0.9984;0.0016 
6.4400;0.9984;0.0016 
6.4500;0.9984;0.0016 
6.4600;0.9984;0.0016 
6.4700;0.9985;0.0015 
6.4800;0.9985;0.0015 
6.4900;0.9985;0.0015 
6.5000;0.9985;0.0015 
6.5100;0.9985;0.0015 
6.5200;0.9985;0.0015 
6.5300;0.9985;0.0015 
6.5400;0.9986;0.0014 
6.5500;0.9986;0.0014 
6.5600;0.9986;0.0014 
6.5700;0.9986;0.0014 
6.5800;0.9986;0.0014 
6.5900;0.9986;0.0014 
6.6000;0.9986;0.0014 
6.6100;0.9987;0.0013 
6.6200;0.9987;0.0013 
6.6300;0.9987;0.0013 
6.6400;0.9987;0.0013 
6.6500;0.9987;0.0013 
6.6600;0.9987;0.0013 
6.6700;0.9987;0.0013 
6.6800;0.9987;0.0013 
6.6900;0.9988;0.0012 
6.7000;0.9988;0.0012 
6.7100;0.9988;0.0012 
6.7200;0.9988;0.0012 
6.7300;0.9988;0.0012 
6.7400;0.9988;0.0012 
6.7500;0.9988;0.0012 
6.7600;0.9988;0.0012 
6.7700;0.9989;0.0011 
6.7800;0.9989;0.0011 
6.7900;0.9989;0.0011 
6.8000;0.9989;0.0011 
6.8100;0.9989;0.0011 
6.8200;0.9989;0.0011 
6.8300;0.9989;0.0011 
6.8400;0.9989;0.0011 
6.8500;0.9989;0.0011 
6.8600;0.9990;0.0010 
6.8700;0.9990;0.0010 
6.8800;0.9990;0.0010 
6.8900;0.9990;0.0010 
6.9000;0.9990;0.0010 
6.9100;0.9990;0.0010 
6.9200;0.9990;0.0010 
6.9300;0.9990;0.0010 
6.9400;0.9990;0.0010 
6.9500;0.9990;0.0010 
6.9600;0.9991;0.0009 
6.9700;0.9991;0.0009 
6.9800;0.9991;0.0009 
6.9900;0.9991;0.0009 
7.0000;0.9991;0.0009 
7.0100;0.9991;0.0009 
7.0200;0.9991;0.0009 
7.0300;0.9991;0.0009 
7.0400;0.9991;0.0009 
7.0500;0.9991;0.0009 
7.0600;0.9991;0.0009 
7.0700;0.9991;0.0009 
7.0800;0.9992;0.0008 
7.0900;0.9992;0.0008 
7.1000;0.9992;0.0008 
7.1100;0.9992;0.0008 
7.1200;0.9992;0.0008 
7.1300;0.9992;0.0008 
7.1400;0.9992;0.0008 
7.1500;0.9992;0.0008 
7.1600;0.9992;0.0008 
7.1700;0.9992;0.0008 
7.1800;0.9992;0.0008 
7.1900;0.9992;0.0008 
7.2000;0.9993;0.0007 
7.2100;0.9993;0.0007 
7.2200;0.9993;0.0007 
7.2300;0.9993;0.0007 
7.2400;0.9993;0.0007 
7.2500;0.9993;0.0007 
7.2600;0.9993;0.0007 
7.2700;0.9993;0.0007 
7.2800;0.9993;0.0007 
7.2900;0.9993;0.0007 
7.3000;0.9993;0.0007 
7.3100;0.9993;0.0007 
7.3200;0.9993;0.0007 
7.3300;0.9993;0.0007 
7.3400;0.9994;0.0006 
7.3500;0.9994;0.0006 
7.3600;0.9994;0.0006 
7.3700;0.9994;0.0006 
7.3800;0.9994;0.0006 
7.3900;0.9994;0.0006 
7.4000;0.9994;0.0006 
7.4100;0.9994;0.0006 
7.4200;0.9994;0.0006 
7.4300;0.9994;0.0006 
7.4400;0.9994;0.0006 
7.4500;0.9994;0.0006 
7.4600;0.9994;0.0006 
7.4700;0.9994;0.0006 
7.4800;0.9994;0.0006 
7.4900;0.9994;0.0006 
7.5000;0.9994;0.0006 
7.5100;0.9995;0.0005 
7.5200;0.9995;0.0005 
7.5300;0.9995;0.0005 
7.5400;0.9995;0.0005 
7.5500;0.9995;0.0005 
7.5600;0.9995;0.0005 
7.5700;0.9995;0.0005 
7.5800;0.9995;0.0005 
7.5900;0.9995;0.0005 
7.6000;0.9995;0.0005 
7.6100;0.9995;0.0005 
7.6200;0.9995;0.0005 
7.6300;0.9995;0.0005 
7.6400;0.9995;0.0005 
7.6500;0.9995;0.0005 
7.6600;0.9995;0.0005 
7.6700;0.9995;0.0005 
7.6800;0.9995;0.0005 
7.6900;0.9995;0.0005 
7.7000;0.9995;0.0005 
7.7100;0.9996;0.0004 
7.7200;0.9996;0.0004 
7.7300;0.9996;0.0004 
7.7400;0.9996;0.0004 
7.7500;0.9996;0.0004 
7.7600;0.9996;0.0004 
7.7700;0.9996;0.0004 
7.7800;0.9996;0.0004 
7.7900;0.9996;0.0004 
7.8000;0.9996;0.0004 
7.8100;0.9996;0.0004 
7.8200;0.9996;0.0004 
7.8300;0.9996;0.0004 
7.8400;0.9996;0.0004 
7.8500;0.9996;0.0004 
7.8600;0.9996;0.0004 
7.8700;0.9996;0.0004 
7.8800;0.9996;0.0004 
7.8900;0.9996;0.0004 
7.9000;0.9996;0.0004 
7.9100;0.9996;0.0004 
7.9200;0.9996;0.0004 
7.9300;0.9996;0.0004 
7.9400;0.9996;0.0004 
7.9500;0.9996;0.0004 
7.9600;0.9997;0.0003 
7.9700;0.9997;0.0003 
7.9800;0.9997;0.0003 
7.9900;0.9997;0.0003 
8.0000;0.9997;0.0003 
8.0100;0.9997;0.0003 
8.0200;0.9997;0.0003 
8.0300;0.9997;0.0003 
8.0400;0.9997;0.0003 
8.0500;0.9997;0.0003 
8.0600;0.9997;0.0003 
8.0700;0.9997;0.0003 
8.0800;0.9997;0.0003 
8.0900;0.9997;0.0003 
8.1000;0.9997;0.0003 
8.1100;0.9997;0.0003 
8.1200;0.9997;0.0003 
8.1300;0.9997;0.0003 
8.1400;0.9997;0.0003 
8.1500;0.9997;0.0003 
8.1600;0.9997;0.0003 
8.1700;0.9997;0.0003 
8.1800;0.9997;0.0003 
8.1900;0.9997;0.0003 
8.2000;0.9997;0.0003 
8.2100;0.9997;0.0003 
8.2200;0.9997;0.0003 
8.2300;0.9997;0.0003 
8.2400;0.9997;0.0003 
8.2500;0.9997;0.0003 
8.2600;0.9997;0.0003 
8.2700;0.9997;0.0003 
8.2800;0.9997;0.0003 
8.2900;0.9997;0.0003 
8.3000;0.9998;0.0002 
8.3100;0.9998;0.0002 
8.3200;0.9998;0.0002 
8.3300;0.9998;0.0002 
8.3400;0.9998;0.0002 
8.3500;0.9998;0.0002 
8.3600;0.9998;0.0002 
8.3700;0.9998;0.0002 
8.3800;0.9998;0.0002 
8.3900;0.9998;0.0002 
8.4000;0.9998;0.0002 
8.4100;0.9998;0.0002 
8.4200;0.9998;0.0002 
8.4300;0.9998;0.0002 
8.4400;0.9998;0.0002 
8.4500;0.9998;0.0002 
8.4600;0.9998;0.0002 
8.4700;0.9998;0.0002 
8.4800;0.9998;0.0002 
8.4900;0.9998;0.0002 
8.5000;0.9998;0.0002 
8.5100;0.9998;0.0002 
8.5200;0.9998;0.0002 
8.5300;0.9998;0.0002 
8.5400;0.9998;0.0002 
8.5500;0.9998;0.0002 
8.5600;0.9998;0.0002 
8.5700;0.9998;0.0002 
8.5800;0.9998;0.0002 
8.5900;0.9998;0.0002 
8.6000;0.9998;0.0002 
8.6100;0.9998;0.0002 
8.6200;0.9998;0.0002 
8.6300;0.9998;0.0002 
8.6400;0.9998;0.0002 
8.6500;0.9998;0.0002 
8.6600;0.9998;0.0002 
8.6700;0.9998;0.0002 
8.6800;0.9998;0.0002 
8.6900;0.9998;0.0002 
8.7000;0.9998;0.0002 
8.7100;0.9998;0.0002 
8.7200;0.9998;0.0002 
8.7300;0.9998;0.0002 
8.7400;0.9998;0.0002 
8.7500;0.9998;0.0002 
8.7600;0.9998;0.0002 
8.7700;0.9998;0.0002 
8.7800;0.9998;0.0002 
8.7900;0.9998;0.0002 
8.8000;0.9998;0.0002 
8.8100;0.9999;0.0001 
8.8200;0.9999;0.0001 
8.8300;0.9999;0.0001 
8.8400;0.9999;0.0001 
8.8500;0.9999;0.0001 
8.8600;0.9999;0.0001 
8.8700;0.9999;0.0001 
8.8800;0.9999;0.0001 
8.8900;0.9999;0.0001 
8.9000;0.9999;0.0001 
8.9100;0.9999;0.0001 
8.9200;0.9999;0.0001 
8.9300;0.9999;0.0001 
8.9400;0.9999;0.0001 
8.9500;0.9999;0.0001 
8.9600;0.9999;0.0001 
8.9700;0.9999;0.0001 
8.9800;0.9999;0.0001 
8.9900;0.9999;0.0001 
9.0000;0.9999;0.0001 
9.0100;0.9999;0.0001 
9.0200;0.9999;0.0001 
9.0300;0.9999;0.0001 
9.0400;0.9999;0.0001 
9.0500;0.9999;0.0001 
9.0600;0.9999;0.0001 
9.0700;0.9999;0.0001 
